SpectraSuite Datei
++++++++++++++++++++++++++++++++++++
Datum: Wed Dec 07 14:10:37 CET 2022
Benutzer: fpphysik
Dark-Spektrum vorhanden: Ja
Referenz-Spektrum vorhanden: Ja
Zahl der probierten Teilspektren: 1
Spektrometer: USB2G45318
Integrationszeit (usec): 300000 (USB2G45318)
Spektren Durchschnitt berechnet: 3 (USB2G45318)
Boxcar Glättung: 0 (USB2G45318)
Dunkelstromkorrektur: Nein (USB2G45318)
Puls/Lampe aktiviert: Nein (USB2G45318)
Correct for Detector Non-linearity: Nein (USB2G45318)
Streulichtkorrektur: Nein (USB2G45318)
Anzahl Pixel in verarbeitetem Spektrum: 651
>>>>>Begin Processed Spectral Data<<<<<
350,00	-3,14
351,00	-0,26
352,00	-0,46
353,00	-1,57
354,00	-1,67
355,00	2,11
356,00	2,70
357,00	1,00
358,00	2,77
359,00	0,12
360,00	-1,12
361,00	1,06
362,00	2,59
363,00	-0,43
364,00	0,32
365,00	1,93
366,00	0,61
367,00	1,13
368,00	2,54
369,00	1,45
370,00	-2,79
371,00	0,63
372,00	0,92
373,00	0,36
374,00	-0,80
375,00	-2,29
376,00	-0,10
377,00	1,55
378,00	1,76
379,00	-2,60
380,00	2,03
381,00	-1,25
382,00	-1,60
383,00	0,74
384,00	2,61
385,00	-0,43
386,00	0,23
387,00	-0,48
388,00	2,40
389,00	-4,59
390,00	-0,23
391,00	2,28
392,00	-0,75
393,00	1,33
394,00	-0,20
395,00	-0,08
396,00	-2,09
397,00	0,26
398,00	0,87
399,00	-0,98
400,00	1,97
401,00	-1,00
402,00	0,87
403,00	-0,43
404,00	2,11
405,00	-0,02
406,00	2,50
407,00	1,00
408,00	4,22
409,00	-2,02
410,00	0,05
411,00	2,29
412,00	0,60
413,00	0,46
414,00	-3,24
415,00	-0,30
416,00	3,53
417,00	3,95
418,00	1,14
419,00	-2,61
420,00	1,04
421,00	-0,23
422,00	-1,35
423,00	-0,24
424,00	1,29
425,00	0,79
426,00	-1,42
427,00	0,90
428,00	-2,11
429,00	-1,15
430,00	3,61
431,00	-2,32
432,00	-0,82
433,00	3,01
434,00	1,00
435,00	-1,72
436,00	1,08
437,00	2,48
438,00	0,47
439,00	-1,57
440,00	-1,95
441,00	-4,52
442,00	-2,60
443,00	3,38
444,00	2,64
445,00	-1,77
446,00	-2,89
447,00	-0,83
448,00	-3,85
449,00	6,09
450,00	-1,95
451,00	1,07
452,00	-2,85
453,00	-1,60
454,00	-0,27
455,00	-0,99
456,00	-2,53
457,00	0,46
458,00	0,67
459,00	2,09
460,00	2,18
461,00	0,32
462,00	1,35
463,00	0,05
464,00	1,55
465,00	-0,64
466,00	-3,52
467,00	1,23
468,00	4,06
469,00	-1,55
470,00	0,21
471,00	7,36
472,00	4,68
473,00	3,83
474,00	0,14
475,00	-3,09
476,00	0,77
477,00	1,73
478,00	-0,39
479,00	1,82
480,00	1,18
481,00	1,47
482,00	3,58
483,00	1,01
484,00	-1,99
485,00	1,42
486,00	0,74
487,00	1,50
488,00	-3,24
489,00	1,05
490,00	-0,35
491,00	-1,02
492,00	0,47
493,00	0,47
494,00	0,36
495,00	2,05
496,00	0,40
497,00	5,43
498,00	2,63
499,00	3,80
500,00	2,14
501,00	-7,91
502,00	7,93
503,00	-0,75
504,00	-0,07
505,00	3,88
506,00	-3,10
507,00	0,81
508,00	-6,05
509,00	-4,99
510,00	-5,53
511,00	3,71
512,00	1,18
513,00	4,99
514,00	-1,25
515,00	-2,77
516,00	-3,37
517,00	-3,51
518,00	2,10
519,00	2,31
520,00	4,48
521,00	-0,33
522,00	4,28
523,00	0,34
524,00	-0,28
525,00	-0,82
526,00	-0,13
527,00	-1,85
528,00	-20,33
529,00	-1,35
530,00	-1,06
531,00	1,86
532,00	-0,19
533,00	-6,65
534,00	4,97
535,00	-2,81
536,00	0,02
537,00	3,41
538,00	1,98
539,00	2,21
540,00	-0,04
541,00	0,44
542,00	0,91
543,00	3,42
544,00	-3,80
545,00	-0,23
546,00	-0,65
547,00	0,37
548,00	1,57
549,00	1,28
550,00	1,52
551,00	-0,03
552,00	-1,38
553,00	-1,36
554,00	-1,05
555,00	-4,37
556,00	-0,34
557,00	0,12
558,00	-2,83
559,00	2,75
560,00	1,60
561,00	-0,19
562,00	1,83
563,00	4,31
564,00	-2,34
565,00	0,67
566,00	-2,97
567,00	0,63
568,00	-3,25
569,00	2,22
570,00	-5,66
571,00	1,10
572,00	0,06
573,00	-4,31
574,00	2,60
575,00	-5,25
576,00	0,81
577,00	2,28
578,00	-6,68
579,00	-1,72
580,00	5,10
581,00	0,38
582,00	3,01
583,00	-4,05
584,00	-5,30
585,00	-1,36
586,00	2,66
587,00	-0,47
588,00	-8,82
589,00	-0,15
590,00	-7,03
591,00	-2,43
592,00	0,36
593,00	1,67
594,00	5,63
595,00	11,61
596,00	-2,35
597,00	0,13
598,00	5,67
599,00	-2,02
600,00	-3,05
601,00	5,36
602,00	2,17
603,00	5,91
604,00	-1,38
605,00	2,21
606,00	26,68
607,00	7,93
608,00	-6,45
609,00	11,22
610,00	33,12
611,00	0,29
612,00	-8,40
613,00	-4,63
614,00	5,10
615,00	-2,31
616,00	23,67
617,00	7,29
618,00	4,95
619,00	2,04
620,00	7,05
621,00	-0,61
622,00	6,19
623,00	-9,24
624,00	3,01
625,00	-1,11
626,00	9,38
627,00	12,85
628,00	-2,03
629,00	-1,23
630,00	1,07
631,00	3,25
632,00	0,22
633,00	-27,58
634,00	5,34
635,00	-3,45
636,00	3,57
637,00	1,63
638,00	7,35
639,00	0,43
640,00	-0,16
641,00	0,47
642,00	-10,84
643,00	1,33
644,00	2,61
645,00	2,24
646,00	2,51
647,00	-1,52
648,00	-4,78
649,00	-0,38
650,00	-31,53
651,00	18,64
652,00	-19,72
653,00	-1,97
654,00	-0,36
655,00	1,20
656,00	3,59
657,00	-0,54
658,00	1,44
659,00	-1,04
660,00	10,99
661,00	6,63
662,00	-2,29
663,00	1,67
664,00	-2,88
665,00	-1,13
666,00	-0,15
667,00	11,65
668,00	-4,64
669,00	32,05
670,00	2,46
671,00	1,76
672,00	9,02
673,00	5,11
674,00	2,15
675,00	-1,44
676,00	-0,91
677,00	-2,41
678,00	-0,96
679,00	-0,11
680,00	1,21
681,00	1,15
682,00	-0,58
683,00	-0,80
684,00	-3,90
685,00	-2,30
686,00	1,80
687,00	-2,52
688,00	1,01
689,00	-1,78
690,00	0,29
691,00	-2,41
692,00	6,81
693,00	1,59
694,00	-0,15
695,00	-2,50
696,00	0,98
697,00	-2,62
698,00	1,19
699,00	0,61
700,00	-1,06
701,00	-1,16
702,00	-0,84
703,00	22,97
704,00	5,43
705,00	-6,81
706,00	-15,55
707,00	-13,39
708,00	-0,70
709,00	-1,64
710,00	1,37
711,00	-1,06
712,00	1,36
713,00	-2,02
714,00	-2,10
715,00	-1,70
716,00	-0,16
717,00	-4,86
718,00	-1,74
719,00	1,02
720,00	-0,49
721,00	0,25
722,00	-1,44
723,00	4,70
724,00	3,91
725,00	6,29
726,00	-6,92
727,00	-3,76
728,00	3,43
729,00	12,54
730,00	2,90
731,00	0,09
732,00	3,87
733,00	0,24
734,00	1,63
735,00	-2,58
736,00	0,31
737,00	2,24
738,00	-1,49
739,00	-0,32
740,00	1,43
741,00	-1,25
742,00	-1,12
743,00	-2,07
744,00	3,89
745,00	-3,01
746,00	-1,81
747,00	-5,38
748,00	-1,38
749,00	-4,63
750,00	3,70
751,00	4,81
752,00	-0,72
753,00	-1,27
754,00	-3,80
755,00	1,84
756,00	2,54
757,00	-3,51
758,00	2,10
759,00	2,41
760,00	-0,53
761,00	1,80
762,00	2,07
763,00	1,28
764,00	0,69
765,00	-0,15
766,00	-2,37
767,00	2,38
768,00	3,41
769,00	0,52
770,00	-2,18
771,00	-0,25
772,00	-0,65
773,00	-1,73
774,00	0,62
775,00	2,81
776,00	2,02
777,00	0,36
778,00	-0,64
779,00	-0,12
780,00	-1,26
781,00	1,32
782,00	2,00
783,00	1,45
784,00	-3,50
785,00	0,29
786,00	1,93
787,00	-0,74
788,00	0,20
789,00	-0,05
790,00	1,86
791,00	0,10
792,00	-0,62
793,00	-2,48
794,00	4,24
795,00	3,44
796,00	0,18
797,00	3,07
798,00	1,68
799,00	0,05
800,00	0,50
801,00	-1,36
802,00	-1,07
803,00	3,54
804,00	-1,63
805,00	-0,29
806,00	-0,47
807,00	-0,26
808,00	1,61
809,00	-1,15
810,00	1,31
811,00	0,44
812,00	-1,28
813,00	1,44
814,00	2,34
815,00	2,80
816,00	3,03
817,00	2,94
818,00	-4,66
819,00	-2,46
820,00	-0,33
821,00	-0,15
822,00	-0,38
823,00	0,68
824,00	0,95
825,00	1,51
826,00	0,32
827,00	0,03
828,00	2,01
829,00	-3,61
830,00	-3,39
831,00	-1,08
832,00	3,03
833,00	-2,61
834,00	-2,17
835,00	0,58
836,00	-1,95
837,00	-1,32
838,00	-3,96
839,00	-0,59
840,00	-1,95
841,00	0,99
842,00	2,54
843,00	0,05
844,00	0,45
845,00	0,88
846,00	-0,57
847,00	1,08
848,00	-0,01
849,00	5,27
850,00	2,41
851,00	1,39
852,00	-0,36
853,00	-0,05
854,00	-0,36
855,00	-1,56
856,00	0,74
857,00	-5,07
858,00	0,65
859,00	3,58
860,00	-1,02
861,00	0,24
862,00	1,36
863,00	-2,78
864,00	2,75
865,00	-2,98
866,00	0,85
867,00	-0,80
868,00	-1,39
869,00	-0,34
870,00	0,18
871,00	0,08
872,00	2,71
873,00	-3,18
874,00	-2,89
875,00	-1,55
876,00	2,24
877,00	2,29
878,00	2,53
879,00	-1,30
880,00	0,56
881,00	-0,30
882,00	-0,68
883,00	-2,25
884,00	-2,01
885,00	-2,98
886,00	1,22
887,00	-0,41
888,00	-1,23
889,00	-1,26
890,00	-0,47
891,00	1,77
892,00	-0,66
893,00	-3,02
894,00	0,46
895,00	0,31
896,00	1,79
897,00	1,02
898,00	4,20
899,00	0,56
900,00	-2,67
901,00	1,76
902,00	-0,46
903,00	-1,54
904,00	-2,29
905,00	1,00
906,00	1,09
907,00	0,69
908,00	0,12
909,00	-1,06
910,00	-1,11
911,00	1,27
912,00	-1,21
913,00	-3,44
914,00	3,61
915,00	-3,86
916,00	0,40
917,00	-4,89
918,00	-0,80
919,00	0,83
920,00	0,16
921,00	1,56
922,00	-3,67
923,00	3,05
924,00	-2,49
925,00	-0,88
926,00	1,12
927,00	-1,88
928,00	-1,65
929,00	0,76
930,00	0,44
931,00	1,19
932,00	1,65
933,00	-0,52
934,00	0,26
935,00	2,57
936,00	1,47
937,00	-1,69
938,00	2,06
939,00	-2,84
940,00	2,24
941,00	-1,52
942,00	1,61
943,00	2,53
944,00	2,72
945,00	-0,21
946,00	0,97
947,00	1,18
948,00	-2,99
949,00	-1,87
950,00	1,54
951,00	4,38
952,00	-0,22
953,00	-2,31
954,00	-0,40
955,00	1,05
956,00	2,82
957,00	-1,40
958,00	-3,35
959,00	3,96
960,00	-1,69
961,00	3,57
962,00	0,42
963,00	-1,08
964,00	1,64
965,00	0,46
966,00	-1,95
967,00	-0,41
968,00	-0,32
969,00	-1,27
970,00	-2,61
971,00	1,41
972,00	-0,77
973,00	1,56
974,00	1,46
975,00	1,82
976,00	-5,51
977,00	2,70
978,00	1,38
979,00	-0,74
980,00	1,06
981,00	1,05
982,00	1,24
983,00	0,53
984,00	-1,82
985,00	-1,92
986,00	2,14
987,00	0,47
988,00	1,22
989,00	0,34
990,00	-0,30
991,00	-1,01
992,00	-0,71
993,00	1,63
994,00	0,48
995,00	-10,59
996,00	-0,92
997,00	0,78
998,00	0,87
999,00	3,04
1000,00	-0,12
>>>>>End Processed Spectral Data<<<<<
